Vin[V]	Vout[V]	DVin[V]	DVout[V]
0.498	0.005
0.996	0.388	
1.490	0.850
1.989	1.323
2.484	1.796
2.982	2.274
3.478	2.750
3.976	3.230
4.470	3.708
4.969	4.190
5.463	4.669
5.962	4.948
6.45	4.949
6.95	4.949
7.45	4.951
7.95	4.952
8.45	4.953
8.94	4.953
9.44	4.954
9.94	4.954
10.94	4.956
11.93	4.958
12.93	4.959
13.93	4.960
14.92	4.962
15.92	4.964
16.92	4.966
17.91	4.968
18.91	4.970
19.91	4.972
20.90	4.974
21.90	4.976
22.90	4.978
23.89	4.979
